Simulation created and run on: 
Mon Feb 27 13:59:18 2023


Time (s), Height (m), Velocity (m/s), Acceleration (m/s^2), Deployment Angle (degrees)
0, 742.914, 264.57, -9.80665, 0
0.100184, 769.314, 262.467, -20.8929, 1.39991
0.200214, 795.464, 260.386, -20.7021, 2.8003
0.300271, 821.414, 258.324, -20.5281, 4.20108
0.40035, 847.164, 256.277, -20.3699, 5.60216
0.500444, 872.714, 254.246, -20.2265, 7.00347
0.600549, 898.064, 252.228, -20.097, 8.40492
0.70066, 923.214, 250.222, -19.9805, 9.80645
0.800772, 948.164, 248.227, -19.8762, 11.208
0.900881, 972.914, 246.242, -19.7832, 12.6095
1.00098, 997.464, 244.266, -19.7008, 14.0109
1.10107, 1021.81, 242.297, -19.628, 15.4121
1.20115, 1045.96, 240.336, -19.5642, 16.8132
1.30121, 1069.91, 238.382, -19.5086, 18.214
1.40125, 1093.66, 236.433, -19.4604, 19.6145
1.50127, 1117.21, 234.488, -19.419, 21.0148
1.60148, 1140.61, 232.544, -19.3836, 22.4177
1.70166, 1163.81, 230.604, -19.3536, 23.8202
1.80182, 1186.81, 228.667, -19.3284, 25.2224
1.90195, 1209.61, 226.732, -19.3073, 26.6243
2.00206, 1232.21, 224.8, -19.2898, 28.0257
2.10213, 1254.61, 222.871, -19.2753, 29.4267
2.20218, 1276.81, 220.943, -19.2633, 30.8273
2.30219, 1298.81, 219.017, -19.2531, 32.2274
2.40239, 1320.66, 217.093, -19.1091, 32.6018
2.50256, 1342.31, 215.189, -18.9194, 32.5986
2.60268, 1363.76, 213.304, -18.7348, 32.6018
2.70274, 1385.01, 211.438, -18.5535, 32.5985
2.80298, 1406.11, 209.587, -18.3763, 32.5985
2.90313, 1427.01, 207.756, -18.203, 32.5985
3.00321, 1447.71, 205.942, -18.0337, 32.5985
3.10343, 1468.26, 204.143, -17.8681, 32.6019
3.20356, 1488.61, 202.363, -17.7054, 32.5985
3.30357, 1508.76, 200.6, -17.5471, 32.6019
3.40371, 1528.76, 198.851, -17.3915, 32.6019
3.50372, 1548.56, 197.119, -17.2394, 32.602
3.60384, 1568.21, 195.4, -17.09, 32.5984
3.70408, 1587.71, 193.695, -16.9438, 32.5984
3.80415, 1607.01, 192.006, -16.8009, 32.5984
3.90433, 1626.16, 190.33, -16.6612, 32.602
4.00433, 1645.11, 188.671, -16.5238, 32.5983
4.10441, 1663.91, 187.024, -16.3895, 32.5983
4.20457, 1682.56, 185.389, -16.2581, 32.6021
4.3048, 1701.06, 183.766, -16.1289, 32.6021
4.40483, 1719.36, 182.159, -16.0026, 32.6021
4.50491, 1737.51, 180.564, -15.8784, 32.5982
4.60503, 1755.51, 178.98, -15.757, 32.5982
4.70521, 1773.36, 177.408, -15.6382, 32.6022
4.80542, 1791.06, 175.846, -15.5214, 32.6022
4.90567, 1808.61, 174.296, -15.4065, 32.5982
5.00594, 1826.01, 172.757, -15.2941, 32.5982
5.10595, 1843.21, 171.233, -15.1843, 32.5981
5.20596, 1860.26, 169.72, -15.0768, 32.6022
5.30598, 1877.16, 168.217, -14.9711, 32.6023
5.406, 1893.91, 166.725, -14.8672, 32.5981
5.50601, 1910.51, 165.243, -14.7655, 32.5981
5.60632, 1927.01, 163.767, -14.6655, 32.598
5.7066, 1943.36, 162.301, -14.5677, 32.6023
5.80687, 1959.56, 160.845, -14.4715, 32.6024
5.90711, 1975.61, 159.4, -14.3768, 32.598
6.00731, 1991.51, 157.964, -14.2842, 32.598
6.10747, 2007.26, 156.538, -14.1937, 32.6024
6.20758, 2022.86, 155.121, -14.1046, 32.6024
6.30764, 2038.31, 153.714, -14.017, 32.5979
6.40796, 2053.66, 152.312, -13.9313, 32.6025
6.50821, 2068.86, 150.92, -13.847, 32.6025
6.6084, 2083.91, 149.537, -13.764, 32.5978
6.7085, 2098.81, 148.163, -13.6829, 32.5978
6.80851, 2113.56, 146.799, -13.6036, 32.6026
6.90878, 2128.21, 145.439, -13.525, 32.5978
7.00894, 2142.71, 144.088, -13.4482, 32.5978
7.109, 2157.06, 142.746, -13.3731, 32.6026
7.2093, 2171.31, 141.408, -13.2988, 32.5977
7.30949, 2185.41, 140.08, -13.226, 32.5977
7.40955, 2199.36, 138.76, -13.155, 32.6027
7.50984, 2213.21, 137.444, -13.0845, 32.5976
7.60999, 2226.91, 136.137, -13.0157, 32.5976
7.71, 2240.46, 134.839, -12.9484, 32.6028
7.81023, 2253.91, 133.544, -12.8818, 32.5976
7.91031, 2267.21, 132.258, -12.8166, 32.5975
8.0106, 2280.41, 130.976, -12.7525, 32.5975
8.11073, 2293.46, 129.703, -12.6898, 32.6029
8.21107, 2306.41, 128.432, -12.6277, 32.5975
8.31122, 2319.21, 127.171, -12.567, 32.5974
8.41159, 2331.91, 125.912, -12.5072, 32.5974
8.51176, 2344.46, 124.663, -12.4489, 32.603
8.61213, 2356.91, 123.416, -12.391, 32.5973
8.7123, 2369.21, 122.178, -12.3345, 32.5973
8.81267, 2381.41, 120.942, -12.2789, 32.5973
8.91281, 2393.46, 119.715, -12.2246, 32.6031
9.01315, 2405.41, 118.492, -12.1707, 32.5972
9.11325, 2417.21, 117.276, -12.1181, 32.5972
9.21353, 2428.91, 116.063, -12.0663, 32.5972
9.31357, 2440.46, 114.859, -12.0158, 32.6032
9.41378, 2451.91, 113.657, -11.9656, 32.5971
9.51418, 2463.26, 112.458, -11.9167, 32.6033
9.6143, 2474.46, 111.268, -11.8685, 32.6033
9.7146, 2485.56, 110.08, -11.8211, 32.6034
9.81461, 2496.51, 108.9, -11.7745, 32.597
9.91479, 2507.36, 107.723, -11.729, 32.6034
10.0151, 2518.11, 106.548, -11.6839, 32.5969
10.1152, 2528.71, 105.381, -11.6398, 32.5969
10.2154, 2539.21, 104.217, -11.5965, 32.5968
10.3157, 2549.61, 103.056, -11.5539, 32.5968
10.4157, 2559.86, 101.902, -11.5123, 32.6036
10.5159, 2570.01, 100.751, -11.471, 32.5967
10.6162, 2580.06, 99.6021, -11.4308, 32.6037
10.7167, 2590.01, 98.4555, -11.3909, 32.5966
10.8168, 2599.81, 97.3171, -11.3519, 32.5966
10.9171, 2609.51, 96.1808, -11.3137, 32.5965
11.0175, 2619.11, 95.0467, -11.276, 32.5965
11.1175, 2628.56, 93.9207, -11.2393, 32.6039
11.2177, 2637.91, 92.7969, -11.2029, 32.5964
11.318, 2647.16, 91.6752, -11.1674, 32.604
11.4184, 2656.31, 90.5555, -11.1322, 32.5963
11.5184, 2665.31, 89.4439, -11.0979, 32.5963
11.6185, 2674.21, 88.3344, -11.0642, 32.5962
11.7188, 2683.01, 87.2268, -11.0311, 32.5962
11.8192, 2691.71, 86.1212, -10.9985, 32.5961
11.9197, 2700.31, 85.0173, -10.9665, 32.5961
12.0197, 2708.76, 83.9218, -10.9353, 32.6044
12.1199, 2717.11, 82.8282, -10.9044, 32.596
12.2201, 2725.36, 81.7363, -10.8743, 32.6045
12.3205, 2733.51, 80.6462, -10.8444, 32.5958
12.421, 2741.56, 79.5578, -10.8154, 32.6046
12.5216, 2749.51, 78.471, -10.7865, 32.5957
12.6217, 2757.31, 77.3928, -10.7585, 32.5957
12.7219, 2765.01, 76.3162, -10.731, 32.5956
12.8222, 2772.61, 75.2413, -10.704, 32.5955
12.9226, 2780.11, 74.168, -10.6774, 32.5955
13.0231, 2787.51, 73.0962, -10.6514, 32.5954
13.1237, 2794.81, 72.0258, -10.6258, 32.5953
13.2238, 2801.96, 70.9644, -10.6009, 32.6051
13.3239, 2809.01, 69.9045, -10.5763, 32.5952
13.424, 2815.96, 68.8461, -10.5524, 32.6053
13.5243, 2822.81, 67.7892, -10.5287, 32.595
13.6247, 2829.56, 66.7337, -10.5057, 32.6054
13.7251, 2836.21, 65.6795, -10.4829, 32.5949
13.8257, 2842.76, 64.6267, -10.4607, 32.6056
13.9263, 2849.21, 63.5752, -10.4387, 32.5947
14.027, 2855.56, 62.5249, -10.4174, 32.6058
14.1278, 2861.81, 61.4757, -10.3963, 32.5945
14.2279, 2867.91, 60.4363, -10.3759, 32.5944
14.3281, 2873.91, 59.3982, -10.3559, 32.5943
14.4283, 2879.81, 58.3614, -10.3363, 32.5942
14.5285, 2885.61, 57.3259, -10.3172, 32.5941
14.6289, 2891.31, 56.2915, -10.2984, 32.594
14.7293, 2896.91, 55.2584, -10.28, 32.5939
14.8298, 2902.41, 54.2264, -10.262, 32.5937
14.9303, 2907.81, 53.1955, -10.2443, 32.5936
15.0309, 2913.11, 52.1656, -10.2271, 32.5935
15.1316, 2918.31, 51.1367, -10.2103, 32.5933
15.2324, 2923.41, 50.1088, -10.1938, 32.5932
15.3332, 2928.41, 49.0818, -10.1777, 32.5931
15.4341, 2933.31, 48.0557, -10.1619, 32.5929
15.5351, 2938.11, 47.0304, -10.1466, 32.5927
15.6361, 2942.81, 46.0059, -10.1316, 32.5926
15.7361, 2947.36, 44.9933, -10.1171, 32.608
15.8362, 2951.81, 43.9819, -10.1029, 32.5922
15.9362, 2956.16, 42.9717, -10.0892, 32.6083
16.0363, 2960.41, 41.9625, -10.0757, 32.5918
16.1365, 2964.56, 40.9544, -10.0627, 32.6087
16.2366, 2968.61, 39.9474, -10.0499, 32.5914
16.3368, 2972.56, 38.9415, -10.0375, 32.6092
16.4369, 2976.41, 37.9366, -10.0254, 32.591
16.5371, 2980.16, 36.9327, -10.0137, 32.6097
16.6373, 2983.81, 35.9299, -10.0023, 32.5904
16.7375, 2987.36, 34.928, -9.99124, 32.6102
16.8378, 2990.81, 33.9271, -9.98043, 32.5899
16.938, 2994.16, 32.9272, -9.97004, 32.6108
17.0383, 2997.41, 31.9282, -9.95988, 32.5892
17.1385, 3000.56, 30.9302, -9.95012, 32.6115
17.2388, 3003.61, 29.9332, -9.94057, 32.5885
17.339, 3006.56, 28.9372, -9.93143, 32.6123
17.4393, 3009.41, 27.9421, -9.9225, 32.5877
17.5395, 3012.16, 26.9479, -9.91394, 32.6132
17.6397, 3014.81, 25.9548, -9.9056, 32.5867
17.7399, 3017.36, 24.9626, -9.89763, 32.6142
17.8401, 3019.81, 23.9715, -9.88985, 32.5856
17.9402, 3022.16, 22.9815, -9.88242, 32.6154
18.0403, 3024.41, 21.9926, -9.87519, 32.5843
18.1404, 3026.56, 21.0048, -9.86827, 32.6168
18.2404, 3028.61, 20.0183, -9.86152, 32.5827
18.343, 3030.61, 19.0072, -9.85486, 32.5818
18.4457, 3032.51, 17.9948, -9.8484, 32.5807
18.5458, 3034.26, 17.0096, -9.8423, 32.6207
18.6489, 3035.96, 15.9951, -9.83613, 32.622
18.749, 3037.51, 15.0109, -9.8302, 32.5769
18.8526, 3039.01, 13.9933, -9.82412, 32.5752
18.9527, 3040.36, 13.01, -9.8182, 32.627
19.0527, 3041.61, 12.0284, -9.81206, 32.5711
19.1571, 3042.81, 11.0045, -9.80527, 32.5684
19.2572, 3043.86, 10.0234, -9.79812, 32.635
19.3626, 3044.86, 8.99047, -9.78939, 32.639
19.463, 3045.71, 8.00866, -9.77922, 32.5566
19.5632, 3046.46, 7.02962, -9.76603, 32.6497
19.6715, 3047.16, 5.97304, -9.74565, 32.6584
19.7727, 3047.71, 4.98846, -9.71573, 32.5307
19.874, 3048.16, 4.00698, -9.66382, 32.6862
19.9755, 3048.51, 3.03148, -9.55958, 32.4878
20.0774, 3048.76, 2.07026, -9.30267, 32.7597
20.1809, 3048.91, 1.15924, -8.47181, 32.3475
20.3468, 3049.03, 0, -0, 31.7898
